3.0      757
3.02     725
3.04     716
3.06     694
3.08     672
3.1      712
3.12     723
3.14     709
3.16     679
3.18     704
3.2      669
3.22     672
3.24     680
3.26     668
3.28     684
3.3      638
3.32     672
3.34     668
3.36     675
3.38     655
3.4      631
3.42     617
3.44     664
3.46     643
3.48     617
3.5      634
3.52     597
3.54     605
3.56     612
3.58     613
3.6      631
3.62     623
3.64     613
3.66     609
3.68     591
3.7      569
3.72     611
3.74     612
3.76     596
3.78     607
3.8      597
3.82     584
3.84     573
3.86     570
3.88     584
3.9      595
3.92     559
3.94     578
3.96     615
3.98     583
4.0      577
4.02     567
4.04     590
4.06     554
4.08     565
4.1      576
4.12     580
4.14     555
4.16     555
4.18     556
4.2      580
4.22     548
4.24     577
4.26     561
4.28     584
4.3      569
4.32     542
4.34     533
4.36     558
4.38     565
4.4      521
4.42     527
4.44     559
4.46     524
4.48     562
4.5      525
4.52     516
4.54     532
4.56     556
4.58     545
4.6      557
4.62     558
4.64     541
4.66     493
4.68     525
4.7      554
4.72     536
4.74     504
4.76     510
4.78     494
4.8      482
4.82     518
4.84     508
4.86     483
4.88     510
4.9      529
4.92     492
4.94     564
4.96     520
4.98     478
5.0      478
5.02     535
5.04     528
5.06     487
5.08     512
5.1      538
5.12     538
5.14     518
5.16     526
5.18     551
5.2      523
5.22     485
5.24     507
5.26     498
5.28     543
5.3      526
5.32     533
5.34     536
5.36     532
5.38     534
5.4      504
5.42     531
5.44     513
5.46     556
5.48     531
5.5      505
5.52     519
5.54     535
5.56     530
5.58     540
5.6      476
5.62     496
5.64     506
5.66     464
5.68     511
5.7      498
5.72     504
5.74     544
5.76     516
5.78     506
5.8      534
5.82     551
5.84     530
5.86     548
5.88     534
5.9      511
5.92     507
5.94     522
5.96     535
5.98     550
6.0      531
6.02     538
6.04     533
6.06     524
6.08     523
6.1      528
6.12     530
6.14     555
6.16     501
6.18     548
6.2      527
6.22     551
6.24     518
6.26     530
6.28     547
6.3      563
6.32     519
6.34     549
6.36     547
6.38     517
6.4      553
6.42     523
6.44     546
6.46     543
6.48     556
6.5      564
6.52     545
6.54     523
6.56     520
6.58     550
6.6      532
6.62     534
6.64     548
6.66     518
6.68     496
6.7      526
6.72     541
6.74     570
6.76     589
6.78     536
6.8      550
6.82     540
6.84     542
6.86     544
6.88     569
6.9      542
6.92     565
6.94     559
6.96     554
6.98     567
7.0      568
7.02     580
7.04     580
7.06     575
7.08     510
7.1      526
7.12     545
7.14     570
7.16     574
7.18     553
7.2      528
7.22     564
7.24     553
7.26     519
7.28     556
7.3      522
7.32     550
7.34     549
7.36     537
7.38     541
7.4      563
7.42     590
7.44     575
7.46     556
7.48     563
7.5      549
7.52     591
7.54     534
7.56     568
7.58     552
7.6      552
7.62     571
7.64     588
7.66     549
7.68     534
7.7      547
7.72     570
7.74     555
7.76     590
7.78     546
7.8      574
7.82     551
7.84     566
7.86     561
7.88     578
7.9      584
7.92     579
7.94     563
7.96     553
7.98     565
8.0      571
8.02     597
8.04     559
8.06     534
8.08     508
8.1      517
8.12     524
8.14     566
8.16     582
8.18     534
8.2      552
8.22     559
8.24     545
8.26     534
8.28     574
8.3      578
8.32     537
8.34     547
8.36     570
8.38     557
8.4      568
8.42     564
8.44     547
8.46     530
8.48     600
8.5      577
8.52     563
8.54     549
8.56     587
8.58     575
8.6      538
8.62     557
8.64     579
8.66     536
8.68     591
8.7      549
8.72     519
8.74     585
8.76     516
8.78     523
8.8      566
8.82     576
8.84     586
8.86     540
8.88     550
8.9      566
8.92     564
8.94     562
8.96     513
8.98     558
9.0      591
9.02     553
9.04     584
9.06     553
9.08     529
9.1      569
9.12     596
9.14     553
9.16     583
9.18     571
9.2      562
9.22     554
9.24     575
9.26     555
9.28     565
9.3      566
9.32     564
9.34     585
9.36     539
9.38     565
9.4      542
9.42     563
9.44     580
9.46     547
9.48     561
9.5      594
9.52     558
9.54     559
9.56     561
9.58     558
9.6      538
9.62     532
9.64     577
9.66     558
9.68     594
9.7      531
9.72     540
9.74     579
9.76     605
9.78     568
9.8      526
9.82     574
9.84     542
9.86     561
9.88     573
9.9      609
9.92     588
9.94     582
9.96     586
9.98     582
10.0     585
10.02    609
10.04    573
10.06    570
10.08    614
10.1     589
10.12    613
10.14    623
10.16    595
10.18    630
10.2     611
10.22    658
10.24    619
10.26    628
10.28    637
10.3     655
10.32    696
10.34    667
10.36    684
10.38    685
10.4     709
10.42    699
10.44    712
10.46    752
10.48    747
10.5     768
10.52    788
10.54    762
10.56    787
10.58    812
10.6     864
10.62    810
10.64    802
10.66    798
10.68    828
10.7     794
10.72    799
10.74    738
10.76    730
10.78    751
10.8     727
10.82    679
10.84    657
10.86    680
10.88    706
10.9     678
10.92    645
10.94    648
10.96    669
10.98    610
11.0     637
11.02    618
11.04    578
11.06    580
11.08    572
11.1     600
11.12    598
11.14    566
11.16    588
11.18    554
11.2     537
11.22    572
11.24    562
11.26    604
11.28    565
11.3     508
11.32    527
11.34    576
11.36    535
11.38    577
11.4     581
11.42    564
11.44    550
11.46    540
11.48    525
11.5     526
11.52    487
11.54    543
11.56    519
11.58    550
11.6     527
11.62    537
11.64    526
11.66    515
11.68    539
11.7     496
11.72    557
11.74    545
11.76    549
11.78    543
11.8     541
11.82    493
11.84    500
11.86    534
11.88    558
11.9     587
11.92    548
11.94    533
11.96    555
11.98    514
12.0     516
12.02    517
12.04    507
12.06    536
12.08    552
12.1     525
12.12    534
12.14    524
12.16    503
12.18    495
12.2     513
12.22    505
12.24    547
12.26    550
12.28    527
12.3     563
12.32    527
12.34    532
12.36    507
12.38    527
12.4     547
12.42    546
12.44    540
12.46    543
12.48    535
12.5     493
12.52    550
12.54    527
12.56    532
12.58    509
12.6     540
12.62    536
12.64    537
12.66    525
12.68    513
12.7     511
12.72    536
12.74    555
12.76    531
12.78    542
12.8     513
12.82    522
12.84    541
12.86    516
12.88    511
12.9     524
12.92    525
12.94    526
12.96    547
12.98    545
13.0     549
13.02    547
13.04    520
13.06    511
13.08    524
13.1     537
13.12    544
13.14    505
13.16    539
13.18    536
13.2     512
13.22    540
13.24    484
13.26    510
13.28    532
13.3     523
13.32    515
13.34    530
13.36    529
13.38    545
13.4     496
13.42    529
13.44    521
13.46    531
13.48    533
13.5     534
13.52    559
13.54    537
13.56    514
13.58    512
13.6     538
13.62    564
13.64    542
13.66    539
13.68    523
13.7     494
13.72    556
13.74    505
13.76    547
13.78    520
13.8     552
13.82    522
13.84    548
13.86    520
13.88    529
13.9     546
13.92    523
13.94    510
13.96    530
13.98    541
14.0     510
14.02    564
14.04    547
14.06    544
14.08    541
14.1     558
14.12    541
14.14    551
14.16    521
14.18    505
14.2     513
14.22    534
14.24    511
14.26    571
14.28    556
14.3     505
14.32    531
14.34    535
14.36    545
14.38    576
14.4     528
14.42    544
14.44    515
14.46    560
14.48    536
14.5     545
14.52    558
14.54    551
14.56    543
14.58    544
14.6     543
14.62    557
14.64    527
14.66    556
14.68    571
14.7     590
14.72    596
14.74    599
14.76    609
14.78    597
14.8     634
14.82    618
14.84    648
14.86    668
14.88    675
14.9     652
14.92    635
14.94    665
14.96    633
14.98    637
15.0     599
15.02    563
15.04    565
15.06    596
15.08    566
15.1     590
15.12    579
15.14    573
15.16    599
15.18    627
15.2     580
15.22    587
15.24    582
15.26    580
15.28    569
15.3     551
15.32    583
15.34    648
15.36    634
15.38    628
15.4     637
15.42    605
15.44    632
15.46    616
15.48    596
15.5     624
15.52    604
15.54    611
15.56    573
15.58    566
15.6     546
15.62    570
15.64    566
15.66    549
15.68    554
15.7     560
15.72    532
15.74    524
15.76    540
15.78    613
15.8     572
15.82    590
15.84    576
15.86    530
15.88    539
15.9     562
15.92    533
15.94    521
15.96    580
15.98    550
16.0     561
16.02    551
16.04    563
16.06    544
16.08    564
16.1     600
16.12    615
16.14    556
16.16    563
16.18    560
16.2     553
16.22    533
16.24    538
16.26    547
16.28    560
16.3     597
16.32    542
16.34    542
16.36    579
16.38    570
16.4     592
16.42    602
16.44    559
16.46    581
16.48    562
16.5     577
16.52    556
16.54    589
16.56    572
16.58    583
16.6     605
16.62    595
16.64    585
16.66    601
16.68    569
16.7     542
16.72    574
16.74    561
16.76    602
16.78    607
16.8     584
16.82    590
16.84    591
16.86    594
16.88    597
16.9     594
16.92    602
16.94    641
16.96    622
16.98    589
17.0     622
17.02    627
17.04    625
17.06    603
17.08    636
17.1     626
17.12    634
17.14    614
17.16    659
17.18    700
17.2     666
17.22    645
17.24    696
17.26    705
17.28    672
17.3     708
17.32    711
17.34    694
17.36    754
17.38    806
17.4     764
17.42    810
17.44    847
17.46    853
17.48    896
17.5     1009
17.52    1070
17.54    1063
17.56    1166
17.58    1260
17.6     1320
17.62    1409
17.64    1502
17.66    1597
17.68    1744
17.7     1815
17.72    1771
17.74    1674
17.76    1566
17.78    1395
17.8     1281
17.82    1202
17.84    1087
17.86    980
17.88    905
17.9     853
17.92    900
17.94    830
17.96    810
17.98    820
18.0     759
18.02    741
18.04    746
18.06    766
18.08    710
18.1     692
18.12    711
18.14    700
18.16    679
18.18    667
18.2     658
18.22    649
18.24    654
18.26    640
18.28    683
18.3     662
18.32    644
18.34    663
18.36    658
18.38    654
18.4     626
18.42    606
18.44    685
18.46    646
18.48    621
18.5     644
18.52    651
18.54    653
18.56    622
18.58    657
18.6     662
18.62    619
18.64    666
18.66    647
18.68    667
18.7     611
18.72    632
18.74    617
18.76    631
18.78    674
18.8     671
18.82    653
18.84    642
18.86    635
18.88    655
18.9     661
18.92    651
18.94    657
18.96    627
18.98    677
19.0     692
19.02    696
19.04    661
19.06    586
19.08    651
19.1     683
19.12    657
19.14    628
19.16    652
19.18    682
19.2     647
19.22    636
19.24    701
19.26    663
19.28    705
19.3     645
19.32    631
19.34    653
19.36    656
19.38    653
19.4     663
19.42    618
19.44    663
19.46    686
19.48    699
19.5     656
19.52    662
19.54    623
19.56    668
19.58    661
19.6     692
19.62    657
19.64    639
19.66    707
19.68    698
19.7     652
19.72    630
19.74    657
19.76    660
19.78    667
19.8     676
19.82    644
19.84    664
19.86    640
19.88    631
19.9     663
19.92    696
19.94    648
19.96    684
19.98    689
20.0     650
20.02    728
20.04    654
20.06    671
20.08    660
20.1     671
20.12    652
20.14    710
20.16    681
20.18    676
20.2     712
20.22    657
20.24    680
20.26    654
20.28    706
20.3     659
20.32    702
20.34    678
20.36    692
20.38    685
20.4     683
20.42    687
20.44    667
20.46    672
20.48    668
20.5     638
20.52    673
20.54    664
20.56    657
20.58    693
20.6     684
20.62    703
20.64    690
20.66    715
20.68    692
20.7     730
20.72    697
20.74    686
20.76    677
20.78    686
20.8     714
20.82    732
20.84    678
20.86    700
20.88    705
20.9     668
20.92    665
20.94    707
20.96    773
20.98    704
21.0     699
21.02    690
21.04    710
21.06    691
21.08    699
21.1     713
21.12    740
21.14    751
21.16    693
21.18    679
21.2     682
21.22    720
21.24    786
21.26    701
21.28    705
21.3     703
21.32    773
21.34    745
21.36    708
21.38    690
21.4     682
21.42    698
21.44    744
21.46    716
21.48    735
21.5     737
21.52    751
21.54    726
21.56    734
21.58    738
21.6     773
21.62    738
21.64    768
21.66    765
21.68    734
21.7     730
21.72    675
21.74    732
21.76    738
21.78    736
21.8     722
21.82    742
21.84    752
21.86    757
21.88    747
21.9     711
21.92    712
21.94    756
21.96    767
21.98    765
22.0     709
22.02    751
22.04    737
22.06    723
22.08    740
22.1     773
22.12    728
22.14    702
22.16    740
22.18    751
22.2     781
22.22    784
22.24    738
22.26    765
22.28    751
22.3     735
22.32    711
22.34    803
22.36    775
22.38    729
22.4     742
22.42    754
22.44    763
22.46    734
22.48    761
22.5     763
22.52    778
22.54    786
22.56    724
22.58    769
22.6     749
22.62    774
22.64    795
22.66    778
22.68    737
22.7     794
22.72    769
22.74    799
22.76    751
22.78    743
22.8     786
22.82    758
22.84    764
22.86    810
22.88    791
22.9     802
22.92    786
22.94    791
22.96    795
22.98    778
23.0     807
23.02    890
23.04    819
23.06    821
23.08    824
23.1     808
23.12    798
23.14    806
23.16    800
23.18    842
23.2     819
23.22    828
23.24    860
23.26    779
23.28    861
23.3     859
23.32    844
23.34    873
23.36    828
23.38    850
23.4     827
23.42    865
23.44    877
23.46    852
23.48    871
23.5     855
23.52    876
23.54    858
23.56    889
23.58    928
23.6     882
23.62    875
23.64    937
23.66    924
23.68    947
23.7     992
23.72    961
23.74    903
23.76    988
23.78    1057
23.8     1053
23.82    1052
23.84    1029
23.86    1023
23.88    1079
23.9     1102
23.92    1140
23.94    1154
23.96    1187
23.98    1257
24.0     1266
24.02    1322
24.04    1319
24.06    1416
24.08    1248
24.1     1315
24.12    1369
24.14    1342
24.16    1396
24.18    1394
24.2     1392
24.22    1375
24.24    1342
24.26    1272
24.28    1258
24.3     1224
24.32    1219
24.34    1196
24.36    1166
24.38    1096
24.4     1104
24.42    1073
24.44    1095
24.46    1031
24.48    1007
24.5     1008
24.52    986
24.54    1003
24.56    981
24.58    935
24.6     981
24.62    934
24.64    930
24.66    890
24.68    930
24.7     914
24.72    923
24.74    876
24.76    880
24.78    868
24.8     901
24.82    866
24.84    907
24.86    845
24.88    871
24.9     870
24.92    880
24.94    874
24.96    848
24.98    849
25.0     879
25.02    911
25.04    908
25.06    937
25.08    903
25.1     869
25.12    874
25.14    901
25.16    918
25.18    875
25.2     892
25.22    880
25.24    942
25.26    900
25.28    991
25.3     992
25.32    962
25.34    960
25.36    974
25.38    1025
25.4     992
25.42    1012
25.44    1074
25.46    1086
25.48    1068
25.5     1097
25.52    1037
25.54    1066
25.56    1004
25.58    1008
25.6     1007
25.62    931
25.64    931
25.66    909
25.68    907
25.7     871
25.72    873
25.74    801
25.76    797
25.78    850
25.8     864
25.82    824
25.84    805
25.86    832
25.88    766
25.9     803
25.92    831
25.94    794
25.96    782
25.98    823
26.0     806
26.02    791
26.04    778
26.06    761
26.08    819
26.1     809
26.12    790
26.14    794
26.16    799
26.18    773
26.2     850
26.22    786
26.24    765
26.26    786
26.28    765
26.3     783
26.32    746
26.34    747
26.36    742
26.38    808
26.4     816
26.42    729
26.44    771
26.46    779
26.48    728
26.5     755
26.52    785
26.54    773
26.56    788
26.58    769
26.6     756
26.62    784
26.64    792
26.66    760
26.68    771
26.7     771
26.72    768
26.74    756
26.76    753
26.78    726
26.8     709
26.82    719
26.84    724
26.86    698
26.88    756
26.9     777
26.92    760
26.94    742
26.96    751
26.98    767
27.0     715
27.02    745
27.04    753
27.06    748
27.08    772
27.1     726
27.12    755
27.14    738
27.16    734
27.18    751
27.2     782
27.22    750
27.24    751
27.26    733
27.28    731
27.3     735
27.32    711
27.34    716
27.36    702
27.38    765
27.4     735
27.42    762
27.44    716
27.46    725
27.48    711
27.5     713
27.52    727
27.54    754
27.56    674
27.58    718
27.6     716
27.62    709
27.64    753
27.66    737
27.68    728
27.7     766
27.72    739
27.74    717
27.76    728
27.78    737
27.8     706
27.82    712
27.84    678
27.86    720
27.88    737
27.9     752
27.92    705
27.94    721
27.96    717
27.98    764
28.0     786
28.02    776
28.04    725
28.06    758
28.08    736
28.1     756
28.12    781
28.14    776
28.16    759
28.18    779
28.2     818
28.22    840
28.24    816
28.26    869
28.28    869
28.3     897
28.32    835
28.34    843
28.36    917
28.38    878
28.4     896
28.42    886
28.44    924
28.46    933
28.48    942
28.5     991
28.52    968
28.54    924
28.56    967
28.58    962
28.6     909
28.62    964
28.64    973
28.66    917
28.68    913
28.7     924
28.72    907
28.74    936
28.76    890
28.78    898
28.8     928
28.82    888
28.84    920
28.86    952
28.88    931
28.9     948
28.92    946
28.94    975
28.96    951
28.98    959
29.0     1007
29.02    965
29.04    983
29.06    954
29.08    942
29.1     923
29.12    927
29.14    936
29.16    950
29.18    881
29.2     937
29.22    938
29.24    950
29.26    993
29.28    1002
29.3     957
29.32    945
29.34    989
29.36    1014
29.38    1060
29.4     1119
29.42    1104
29.44    1215
29.46    1233
29.48    1301
29.5     1357
29.52    1387
29.54    1529
29.56    1545
29.58    1685
29.6     1747
29.62    1770
29.64    1759
29.66    1683
29.68    1716
29.7     1586
29.72    1576
29.74    1497
29.76    1467
29.78    1396
29.8     1331
29.82    1317
29.84    1308
29.86    1338
29.88    1329
29.9     1308
29.92    1273
29.94    1300
29.96    1291
29.98    1262
30.0     1194
30.02    1154
30.04    1065
30.06    1035
30.08    1026
30.1     949
30.12    906
30.14    882
30.16    861
30.18    837
30.2     815
30.22    757
30.24    803
30.26    757
30.28    793
30.3     809
30.32    748
30.34    795
30.36    758
30.38    730
30.4     746
30.42    754
30.44    720
30.46    735
30.48    761
30.5     701
30.52    700
30.54    731
30.56    700
30.58    682
30.6     694
30.62    717
30.64    708
30.66    709
30.68    706
30.7     679
30.72    689
30.74    689
30.76    691
30.78    633
30.8     655
30.82    628
30.84    622
30.86    590
30.88    638
30.9     652
30.92    622
30.94    624
30.96    630
30.98    630
31.0     656
31.02    615
31.04    632
31.06    607
31.08    643
31.1     597
31.12    569
31.14    534
31.16    583
31.18    599
31.2     634
31.22    542
31.24    594
31.26    602
31.28    592
31.3     577
31.32    571
31.34    590
31.36    563
31.38    580
31.4     555
31.42    565
31.44    576
31.46    524
31.48    569
31.5     518
31.52    573
31.54    541
31.56    529
31.58    524
31.6     537
31.62    549
31.64    561
31.66    540
31.68    552
31.7     525
31.72    509
31.74    514
31.76    528
31.78    528
31.8     534
31.82    535
31.84    572
31.86    532
31.88    481
31.9     527
31.92    493
31.94    523
31.96    518
31.98    527
32.0     528
32.02    538
32.04    517
32.06    515
32.08    564
32.1     550
32.12    550
32.14    563
32.16    544
32.18    520
32.2     565
32.22    598
32.24    552
32.26    535
32.28    527
32.3     539
32.32    513
32.34    502
32.36    569
32.38    560
32.4     548
32.42    543
32.44    551
32.46    527
32.48    529
32.5     509
32.52    510
32.54    521
32.56    526
32.58    528
32.6     546
32.62    514
32.64    510
32.66    515
32.68    508
32.7     496
32.72    452
32.74    462
32.76    500
32.78    505
32.8     484
32.82    479
32.84    497
32.86    461
32.88    464
32.9     482
32.92    474
32.94    490
32.96    499
32.98    469
33.0     472
33.02    512
33.04    480
33.06    466
33.08    466
33.1     468
33.12    497
33.14    430
33.16    491
33.18    466
33.2     450
33.22    474
33.24    458
33.26    462
33.28    441
33.3     437
33.32    429
33.34    429
33.36    435
33.38    456
33.4     471
33.42    427
33.44    451
33.46    416
33.48    430
33.5     456
33.52    439
33.54    467
33.56    428
33.58    442
33.6     457
33.62    429
33.64    433
33.66    425
33.68    447
33.7     422
33.72    421
33.74    405
33.76    412
33.78    419
33.8     451
33.82    428
33.84    444
33.86    404
33.88    406
33.9     407
33.92    421
33.94    439
33.96    429
33.98    432
34.0     442
34.02    444
34.04    436
34.06    428
34.08    430
34.1     433
34.12    415
34.14    424
34.16    416
34.18    410
34.2     439
34.22    419
34.24    444
34.26    421
34.28    417
34.3     424
34.32    448
34.34    392
34.36    432
34.38    427
34.4     430
34.42    403
34.44    428
34.46    393
34.48    415
34.5     418
34.52    435
34.54    394
34.56    392
34.58    433
34.6     416
34.62    373
34.64    423
34.66    375
34.68    393
34.7     412
34.72    412
34.74    426
34.76    411
34.78    423
34.8     464
34.82    403
34.84    402
34.86    387
34.88    414
34.9     402
34.92    418
34.94    433
34.96    382
34.98    381
35.0     413
35.02    418
35.04    409
35.06    410
35.08    418
35.1     403
35.12    433
35.14    451
35.16    438
35.18    453
35.2     413
35.22    428
35.24    414
35.26    435
35.28    410
35.3     415
35.32    374
35.34    403
35.36    395
35.38    400
35.4     383
35.42    391
35.44    376
35.46    379
35.48    384
35.5     410
35.52    415
35.54    405
35.56    410
35.58    416
35.6     391
35.62    417
35.64    395
35.66    394
35.68    372
35.7     408
35.72    413
35.74    401
35.76    406
35.78    405
35.8     429
35.82    421
35.84    407
35.86    409
35.88    439
35.9     405
35.92    424
35.94    391
35.96    414
35.98    420
36.0     430
36.02    401
36.04    399
36.06    411
36.08    392
36.1     361
36.12    375
36.14    388
36.16    372
36.18    397
36.2     384
36.22    353
36.24    397
36.26    372
36.28    378
36.3     369
36.32    352
36.34    366
36.36    361
36.38    352
36.4     360
36.42    376
36.44    355
36.46    364
36.48    354
36.5     343
36.52    361
36.54    342
36.56    360
36.58    356
36.6     315
36.62    331
36.64    321
36.66    361
36.68    352
36.7     334
36.72    355
36.74    355
36.76    367
36.78    341
36.8     353
36.82    384
36.84    359
36.86    327
36.88    368
36.9     376
36.92    380
36.94    343
36.96    352
36.98    365
37.0     343
37.02    350
37.04    346
37.06    331
37.08    367
37.1     359
37.12    334
37.14    352
37.16    351
37.18    382
37.2     380
37.22    345
37.24    348
37.26    366
37.28    361
37.3     336
37.32    348
37.34    356
37.36    329
37.38    340
37.4     332
37.42    363
37.44    365
37.46    397
37.48    358
37.5     374
37.52    334
37.54    359
37.56    344
37.58    357
37.6     364
37.62    381
37.64    372
37.66    425
37.68    406
37.7     405
37.72    399
37.74    437
37.76    433
37.78    424
37.8     419
37.82    469
37.84    493
37.86    504
37.88    514
37.9     459
37.92    480
37.94    487
37.96    475
37.98    515
38.0     503
38.02    485
38.04    480
38.06    501
38.08    491
38.1     508
38.12    546
38.14    544
38.16    564
38.18    637
38.2     637
38.22    651
38.24    655
38.26    678
38.28    665
38.3     649
38.32    640
38.34    615
38.36    605
38.38    554
38.4     593
38.42    531
38.44    494
38.46    537
38.48    474
38.5     469
38.52    443
38.54    402
38.56    446
38.58    432
38.6     409
38.62    414
38.64    406
38.66    409
38.68    390
38.7     365
38.72    361
38.74    356
38.76    344
38.78    395
38.8     367
38.82    363
38.84    350
38.86    332
38.88    381
38.9     382
38.92    366
38.94    361
38.96    369
38.98    362
39.0     390
39.02    374
39.04    376
39.06    343
39.08    372
39.1     347
39.12    357
39.14    339
39.16    342
39.18    342
39.2     347
39.22    363
39.24    363
39.26    321
39.28    315
39.3     351
39.32    326
39.34    344
39.36    359
39.38    337
39.4     374
39.42    335
39.44    331
39.46    327
39.48    369
39.5     345
39.52    350
39.54    353
39.56    331
39.58    334
39.6     344
39.62    338
39.64    331
39.66    342
39.68    340
39.7     360
39.72    347
39.74    341
39.76    311
39.78    336
39.8     343
39.82    367
39.84    313
39.86    308
39.88    316
39.9     340
39.92    337
39.94    329
39.96    297
39.98    322
40.0     321
40.02    325
40.04    304
40.06    307
40.08    329
40.1     329
40.12    323
40.14    343
40.16    330
40.18    311
40.2     349
40.22    324
40.24    331
40.26    287
40.28    325
40.3     303
40.32    327
40.34    328
40.36    314
40.38    306
40.4     317
40.42    350
40.44    315
40.46    320
40.48    332
40.5     321
40.52    332
40.54    363
40.56    306
40.58    319
40.6     329
40.62    326
40.64    320
40.66    353
40.68    353
40.7     371
40.72    365
40.74    340
40.76    326
40.78    376
40.8     353
40.82    336
40.84    334
40.86    348
40.88    317
40.9     347
40.92    323
40.94    337
40.96    341
40.98    331
41.0     352
41.02    331
41.04    353
41.06    330
41.08    318
41.1     361
41.12    349
41.14    343
41.16    361
41.18    354
41.2     349
41.22    320
41.24    352
41.26    349
41.28    325
41.3     291
41.32    336
41.34    336
41.36    317
41.38    334
41.4     351
41.42    341
41.44    335
41.46    324
41.48    331
41.5     321
41.52    309
41.54    289
41.56    309
41.58    319
41.6     327
41.62    325
41.64    324
41.66    353
41.68    313
41.7     351
41.72    317
41.74    327
41.76    317
41.78    308
41.8     294
41.82    319
41.84    318
41.86    325
41.88    323
41.9     319
41.92    298
41.94    331
41.96    317
41.98    306
42.0     326
42.02    332
42.04    327
42.06    324
42.08    311
42.1     334
42.12    323
42.14    301
42.16    290
42.18    288
42.2     295
42.22    320
42.24    296
42.26    346
42.28    304
42.3     314
42.32    303
42.34    330
42.36    310
42.38    326
42.4     312
42.42    320
42.44    321
42.46    298
42.48    323
42.5     309
42.52    327
42.54    333
42.56    330
42.58    325
42.6     347
42.62    309
42.64    335
42.66    289
42.68    329
42.7     318
42.72    315
42.74    294
42.76    298
42.78    295
42.8     304
42.82    282
42.84    283
42.86    281
42.88    317
42.9     345
42.92    315
42.94    337
42.96    306
42.98    323
43.0     313
43.02    306
43.04    306
43.06    281
43.08    294
43.1     295
43.12    289
43.14    303
43.16    346
43.18    350
43.2     326
43.22    309
43.24    326
43.26    326
43.28    324
43.3     307
43.32    376
43.34    350
43.36    346
43.38    319
43.4     313
43.42    325
43.44    324
43.46    348
43.48    319
43.5     313
43.52    293
43.54    303
43.56    349
43.58    324
43.6     312
43.62    326
43.64    324
43.66    312
43.68    284
43.7     297
43.72    301
43.74    306
43.76    319
43.78    300
43.8     308
43.82    313
43.84    294
43.86    318
43.88    320
43.9     286
43.92    314
43.94    308
43.96    318
43.98    323
44.0     318
44.02    309
44.04    313
44.06    322
44.08    301
44.1     311
44.12    297
44.14    300
44.16    311
44.18    298
44.2     286
44.22    304
44.24    307
44.26    280
44.28    307
44.3     302
44.32    299
44.34    302
44.36    279
44.38    307
44.4     279
44.42    314
44.44    303
44.46    317
44.48    282
44.5     300
44.52    309
44.54    293
44.56    321
44.58    250
44.6     279
44.62    290
44.64    300
44.66    282
44.68    298
44.7     313
44.72    293
44.74    308
44.76    315
44.78    286
44.8     296
44.82    278
44.84    284
44.86    293
44.88    292
44.9     308
44.92    324
44.94    294
44.96    296
44.98    295
45.0     267
45.02    314
45.04    311
45.06    324
45.08    274
45.1     292
45.12    273
45.14    311
45.16    304
45.18    288
45.2     293
45.22    310
45.24    291
45.26    281
45.28    297
45.3     309
45.32    299
45.34    339
45.36    347
45.38    310
45.4     321
45.42    334
45.44    332
45.46    333
45.48    342
45.5     377
45.52    346
45.54    358
45.56    371
45.58    341
45.6     374
45.62    389
45.64    406
45.66    394
45.68    384
45.7     410
45.72    385
45.74    390
45.76    393
45.78    430
45.8     388
45.82    370
45.84    395
45.86    342
45.88    371
45.9     366
45.92    374
45.94    349
45.96    363
45.98    328
46.0     304
46.02    348
46.04    322
46.06    322
46.08    312
46.1     333
46.12    301
46.14    331
46.16    303
46.18    305
46.2     329
46.22    304
46.24    303
46.26    322
46.28    344
46.3     320
46.32    336
46.34    343
46.36    334
46.38    324
46.4     332
46.42    308
46.44    323
46.46    320
46.48    329
46.5     352
46.52    332
46.54    308
46.56    328
46.58    311
46.6     321
46.62    307
46.64    327
46.66    323
46.68    320
46.7     305
46.72    302
46.74    316
46.76    333
46.78    312
46.8     338
46.82    349
46.84    333
46.86    318
46.88    306
46.9     335
46.92    319
46.94    342
46.96    383
46.98    341
47.0     350
47.02    330
47.04    368
47.06    339
47.08    329
47.1     349
47.12    362
47.14    357
47.16    360
47.18    353
47.2     346
47.22    392
47.24    390
47.26    403
47.28    404
47.3     400
47.32    434
47.34    442
47.36    429
47.38    434
47.4     466
47.42    515
47.44    523
47.46    531
47.48    557
47.5     603
47.52    604
47.54    628
47.56    583
47.58    534
47.6     566
47.62    617
47.64    543
47.66    498
47.68    512
47.7     478
47.72    463
47.74    425
47.76    426
47.78    409
47.8     386
47.82    346
47.84    347
47.86    346
47.88    318
47.9     316
47.92    342
47.94    312
47.96    320
47.98    323
48.0     297
48.02    311
48.04    330
48.06    274
48.08    292
48.1     305
48.12    302
48.14    300
48.16    296
48.18    324
48.2     276
48.22    285
48.24    292
48.26    274
48.28    304
48.3     239
48.32    291
48.34    286
48.36    277
48.38    308
48.4     267
48.42    277
48.44    301
48.46    293
48.48    306
48.5     294
48.52    278
48.54    280
48.56    265
48.58    269
48.6     279
48.62    280
48.64    314
48.66    285
48.68    279
48.7     260
48.72    288
48.74    307
48.76    288
48.78    296
48.8     298
48.82    278
48.84    276
48.86    281
48.88    292
48.9     272
48.92    273
48.94    268
48.96    288
48.98    285
49.0     307
49.02    314
49.04    291
49.06    275
49.08    282
49.1     288
49.12    278
49.14    299
49.16    296
49.18    306
49.2     287
49.22    285
49.24    300
49.26    293
49.28    277
49.3     292
49.32    321
49.34    331
49.36    299
49.38    306
49.4     302
49.42    305
49.44    304
49.46    283
49.48    280
49.5     270
49.52    288
49.54    270
49.56    292
49.58    331
49.6     318
49.62    309
49.64    324
49.66    271
49.68    275
49.7     308
49.72    278
49.74    277
49.76    289
49.78    276
49.8     262
49.82    285
49.84    277
49.86    268
49.88    288
49.9     311
49.92    294
49.94    282
49.96    282
49.98    277
50.0     287
50.02    267
50.04    269
50.06    270
50.08    258
50.1     269
50.12    241
50.14    265
50.16    248
50.18    266
50.2     266
50.22    259
50.24    259
50.26    260
50.28    274
50.3     283
50.32    268
50.34    265
50.36    283
50.38    273
50.4     250
50.42    258
50.44    265
50.46    270
50.48    291
50.5     269
50.52    251
50.54    261
50.56    280
50.58    278
50.6     270
50.62    249
50.64    259
50.66    242
50.68    232
50.7     242
50.72    267
50.74    252
50.76    244
50.78    273
50.8     256
50.82    296
50.84    255
50.86    256
50.88    245
50.9     263
50.92    251
50.94    272
50.96    256
50.98    257
51.0     246
51.02    277
51.04    268
51.06    272
51.08    279
51.1     277
51.12    257
51.14    256
51.16    264
51.18    244
51.2     238
51.22    230
51.24    255
51.26    265
51.28    241
51.3     247
51.32    270
51.34    274
51.36    263
51.38    258
51.4     278
51.42    268
51.44    242
51.46    258
51.48    272
51.5     262
51.52    265
51.54    283
51.56    260
51.58    246
51.6     248
51.62    260
51.64    238
51.66    259
51.68    258
51.7     281
51.72    284
51.74    288
51.76    276
51.78    280
51.8     256
51.82    272
51.84    250
51.86    273
51.88    282
51.9     299
51.92    293
51.94    302
51.96    283
51.98    297
52.0     297
52.02    313
52.04    323
52.06    333
52.08    350
52.1     340
52.12    364
52.14    357
52.16    403
52.18    417
52.2     467
52.22    446
52.24    427
52.26    437
52.28    483
52.3     472
52.32    436
52.34    465
52.36    445
52.38    434
52.4     424
52.42    437
52.44    425
52.46    418
52.48    385
52.5     374
52.52    372
52.54    369
52.56    371
52.58    329
52.6     338
52.62    320
52.64    317
52.66    300
52.68    310
52.7     287
52.72    272
52.74    293
52.76    286
52.78    274
52.8     268
52.82    280
52.84    250
52.86    271
52.88    273
52.9     271
52.92    273
52.94    247
52.96    258
52.98    228
53.0     241
53.02    248
53.04    268
53.06    277
53.08    275
53.1     260
53.12    264
53.14    253
53.16    224
53.18    233
53.2     254
53.22    251
53.24    248
53.26    238
53.28    236
53.3     274
53.32    246
53.34    235
53.36    277
53.38    256
53.4     257
53.42    258
53.44    256
53.46    241
53.48    243
53.5     236
53.52    237
53.54    247
53.56    245
53.58    262
53.6     242
53.62    249
53.64    226
53.66    247
53.68    269
53.7     261
53.72    241
53.74    252
53.76    248
53.78    237
53.8     250
53.82    249
53.84    245
53.86    225
53.88    259
53.9     258
53.92    255
53.94    254
53.96    247
53.98    272
54.0     244
54.02    263
54.04    255
54.06    238
54.08    257
54.1     257
54.12    252
54.14    239
54.16    239
54.18    258
54.2     277
54.22    267
54.24    263
54.26    232
54.28    251
54.3     246
54.32    232
54.34    239
54.36    252
54.38    247
54.4     254
54.42    266
54.44    277
54.46    262
54.48    264
54.5     255
54.52    240
54.54    237
54.56    253
54.58    240
54.6     235
54.62    246
54.64    258
54.66    238
54.68    271
54.7     257
54.72    234
54.74    249
54.76    250
54.78    251
54.8     256
54.82    265
54.84    250
54.86    229
54.88    257
54.9     277
54.92    243
54.94    285
54.96    236
54.98    266
55.0     246
55.02    246
55.04    256
55.06    245
55.08    244
55.1     273
55.12    269
55.14    231
55.16    242
55.18    258
55.2     267
55.22    263
55.24    262
55.26    233
55.28    264
55.3     261
55.32    244
55.34    277
55.36    256
55.38    275
55.4     271
55.42    246
55.44    257
55.46    288
55.48    295
55.5     272
55.52    275
55.54    280
55.56    279
55.58    303
55.6     309
55.62    327
55.64    318
55.66    330
55.68    306
55.7     288
55.72    281
55.74    290
55.76    280
55.78    331
55.8     303
55.82    294
55.84    289
55.86    276
55.88    266
55.9     273
55.92    297
55.94    286
55.96    271
55.98    250
56.0     250
56.02    253
56.04    237
56.06    242
56.08    232
56.1     246
56.12    270
56.14    264
56.16    250
56.18    254
56.2     247
56.22    266
56.24    274
56.26    279
56.28    262
56.3     262
56.32    267
56.34    247
56.36    253
56.38    242
56.4     241
56.42    228
56.44    225
56.46    238
56.48    223
56.5     257
56.52    247
56.54    250
56.56    256
56.58    252
56.6     271
56.62    247
56.64    238
56.66    229
56.68    231
56.7     287
56.72    235
56.74    255
56.76    268
56.78    238
56.8     265
56.82    252
56.84    224
56.86    254
56.88    242
56.9     264
56.92    244
56.94    224
56.96    248
56.98    255
57.0     252
57.02    255
57.04    266
57.06    258
57.08    255
57.1     236
57.12    248
57.14    272
57.16    264
57.18    273
57.2     256
57.22    264
57.24    256
57.26    237
57.28    237
57.3     269
57.32    261
57.34    277
57.36    249
57.38    282
57.4     267
57.42    274
57.44    298
57.46    277
57.48    292
57.5     314
57.52    275
57.54    269
57.56    284
57.58    267
57.6     290
57.62    291
57.64    276
57.66    300
57.68    290
57.7     313
57.72    286
57.74    266
57.76    259
57.78    293
57.8     275
57.82    285
57.84    298
57.86    273
57.88    273
57.9     276
57.92    267
57.94    250
57.96    254
57.98    241
58.0     253
58.02    251
58.04    262
58.06    253
58.08    257
58.1     259
58.12    238
58.14    269
58.16    295
58.18    290
58.2     258
58.22    271
58.24    262
58.26    263
58.28    255
58.3     238
58.32    252
58.34    275
58.36    245
58.38    271
58.4     280
58.42    267
58.44    262
58.46    247
58.48    246
58.5     269
58.52    268
58.54    286
58.56    305
58.58    279
58.6     283
58.62    288
58.64    285
58.66    268
58.68    302
58.7     267
58.72    284
58.74    288
58.76    323
58.78    289
58.8     289
58.82    304
58.84    315
58.86    311
58.88    333
58.9     303
58.92    309
58.94    280
58.96    300
58.98    262
59.0     278
59.02    285
59.04    277
59.06    291
59.08    305
59.1     291
59.12    296
59.14    285
59.16    282
59.18    296
59.2     296
59.22    273
59.24    291
59.26    276
59.28    271
59.3     298
59.32    282
59.34    295
59.36    324
59.38    292
59.4     301
59.42    281
59.44    289
59.46    298
59.48    281
59.5     275
59.52    284
59.54    299
59.56    310
59.58    272
59.6     305
59.62    309
59.64    323
59.66    340
59.68    318
59.7     297
59.72    308
59.74    288
59.76    329
59.78    319
59.8     318
59.82    364
59.84    319
59.86    313
59.88    325
59.9     317
59.92    337
59.94    366
59.96    363
59.98    342
60.0     341
60.02    355
60.04    377
60.06    421
60.08    404
60.1     391
60.12    404
60.14    374
60.16    396
60.18    462
60.2     428
60.22    420
60.24    415
60.26    382
60.28    384
60.3     392
60.32    403
60.34    359
60.36    375
60.38    380
60.4     381
60.42    391
60.44    354
60.46    365
60.48    362
60.5     353
60.52    340
60.54    333
60.56    334
60.58    366
60.6     356
60.62    369
60.64    402
60.66    380
60.68    336
60.7     337
60.72    330
60.74    360
60.76    331
60.78    336
60.8     342
60.82    339
60.84    328
60.86    351
60.88    322
60.9     352
60.92    308
60.94    341
60.96    318
60.98    320
61.0     342
61.02    293
61.04    297
61.06    313
61.08    310
61.1     303
61.12    299
61.14    338
61.16    318
61.18    297
61.2     284
61.22    315
61.24    292
61.26    309
61.28    315
61.3     339
61.32    316
61.34    329
61.36    338
61.38    319
61.4     308
61.42    334
61.44    329
61.46    330
61.48    302
61.5     296
61.52    329
61.54    345
61.56    303
61.58    307
61.6     332
61.62    309
61.64    306
61.66    280
61.68    309
61.7     309
61.72    305
61.74    307
61.76    295
61.78    276
61.8     282
61.82    267
61.84    255
61.86    264
61.88    278
61.9     275
61.92    294
61.94    272
61.96    293
61.98    266
62.0     266
62.02    277
62.04    257
62.06    264
62.08    269
62.1     244
62.12    257
62.14    293
62.16    282
62.18    286
62.2     254
62.22    244
62.24    258
62.26    254
62.28    277
62.3     269
62.32    259
62.34    281
62.36    249
62.38    240
62.4     236
62.42    248
62.44    243
62.46    250
62.48    251
62.5     294
62.52    261
62.54    234
62.56    230
62.58    239
62.6     248
62.62    249
62.64    264
62.66    260
62.68    259
62.7     266
62.72    235
62.74    262
62.76    274
62.78    250
62.8     264
62.82    254
62.84    248
62.86    237
62.88    234
62.9     240
62.92    242
62.94    257
62.96    260
62.98    239
63.0     233
63.02    234
63.04    269
63.06    263
63.08    242
63.1     249
63.12    240
63.14    258
63.16    241
63.18    256
63.2     251
63.22    253
63.24    243
63.26    250
63.28    229
63.3     225
63.32    243
63.34    237
63.36    228
63.38    238
63.4     257
63.42    258
63.44    242
63.46    252
63.48    270
63.5     267
63.52    273
63.54    260
63.56    254
63.58    263
63.6     252
63.62    247
63.64    260
63.66    252
63.68    257
63.7     288
63.72    273
63.74    237
63.76    241
63.78    256
63.8     272
63.82    273
63.84    290
63.86    270
63.88    247
63.9     272
63.92    272
63.94    259
63.96    249
63.98    244
64.0     248
64.02    237
64.04    263
64.06    262
64.08    288
64.1     262
64.12    265
64.14    233
64.16    251
64.18    277
64.2     245
64.22    233
64.24    250
64.26    257
64.28    232
64.3     239
64.32    235
64.34    242
64.36    268
64.38    225
64.4     260
64.42    241
64.44    247
64.46    253
64.48    247
64.5     223
64.52    258
64.54    251
64.56    246
64.58    238
64.6     249
64.62    246
64.64    227
64.66    255
64.68    239
64.7     233
64.72    230
64.74    250
64.76    253
64.78    258
64.8     246
64.82    245
64.84    264
64.86    221
64.88    245
64.9     275
64.92    266
64.94    253
64.96    244
64.98    264
65.0     247
65.02    306
65.04    289
65.06    274
65.08    247
65.1     238
65.12    269
65.14    254
65.16    266
65.18    264
65.2     257
65.22    237
65.24    268
65.26    223
65.28    242
65.3     246
65.32    233
65.34    255
65.36    253
65.38    245
65.4     244
65.42    261
65.44    247
65.46    238
65.48    244
65.5     230
65.52    241
65.54    228
65.56    224
65.58    211
65.6     237
65.62    261
65.64    233
65.66    246
65.68    241
65.7     235
65.72    264
65.74    273
65.76    263
65.78    238
65.8     233
65.82    233
65.84    247
65.86    249
65.88    232
65.9     263
65.92    203
65.94    252
65.96    245
65.98    245
66.0     244
66.02    239
66.04    258
66.06    223
66.08    228
66.1     237
66.12    247
66.14    233
66.16    230
66.18    241
66.2     263
66.22    227
66.24    241
66.26    243
66.28    230
66.3     245
66.32    229
66.34    243
66.36    230
66.38    234
66.4     253
66.42    248
66.44    261
66.46    275
66.48    267
66.5     270
66.52    254
66.54    259
66.56    259
66.58    243
66.6     258
66.62    259
66.64    268
66.66    259
66.68    282
66.7     277
66.72    241
66.74    269
66.76    246
66.78    256
66.8     245
66.82    251
66.84    276
66.86    248
66.88    252
66.9     245
66.92    265
66.94    234
66.96    256
66.98    256
67.0     251
67.02    269
67.04    234
67.06    247
67.08    275
67.1     277
67.12    270
67.14    258
67.16    284
67.18    282
67.2     249
67.22    253
67.24    258
67.26    261
67.28    234
67.3     274
67.32    258
67.34    250
67.36    243
67.38    243
67.4     235
67.42    255
67.44    242
67.46    262
67.48    256
67.5     244
67.52    242
67.54    248
67.56    246
67.58    248
67.6     242
67.62    230
67.64    226
67.66    229
67.68    239
67.7     240
67.72    247
67.74    233
67.76    238
67.78    244
67.8     242
67.82    240
67.84    253
67.86    226
67.88    248
67.9     245
67.92    253
67.94    247
67.96    244
67.98    251
68.0     261
68.02    272
68.04    251
68.06    280
68.08    279
68.1     275
68.12    271
68.14    308
68.16    289
68.18    312
68.2     281
68.22    305
68.24    286
68.26    332
68.28    327
68.3     277
68.32    316
68.34    327
68.36    307
68.38    322
68.4     322
68.42    343
68.44    315
68.46    319
68.48    329
68.5     323
68.52    334
68.54    313
68.56    298
68.58    310
68.6     299
68.62    304
68.64    313
68.66    259
68.68    284
68.7     308
68.72    278
68.74    295
68.76    250
68.78    266
68.8     284
68.82    255
68.84    265
68.86    278
68.88    270
68.9     269
68.92    260
68.94    271
68.96    290
68.98    260
69.0     259
69.02    274
69.04    258
69.06    261
69.08    275
69.1     249
69.12    276
69.14    276
69.16    239
69.18    248
69.2     257
69.22    261
69.24    261
69.26    241
69.28    221
69.3     253
69.32    251
69.34    220
69.36    236
69.38    242
69.4     237
69.42    230
69.44    208
69.46    234
69.48    234
69.5     236
69.52    253
69.54    210
69.56    223
69.58    253
69.6     218
69.62    263
69.64    257
69.66    227
69.68    245
69.7     267
69.72    226
69.74    227
69.76    214
69.78    223
69.8     235
69.82    244
69.84    212
69.86    228
69.88    219
69.9     239
69.92    237
69.94    235
69.96    236
69.98    230
70.0     224
70.02    209
70.04    213
70.06    217
70.08    232
70.1     228
70.12    227
70.14    236
70.16    229
70.18    223
70.2     210
70.22    204
70.24    215
70.26    234
70.28    213
70.3     226
70.32    215
70.34    219
70.36    239
70.38    242
70.4     217
70.42    241
70.44    199
70.46    221
70.48    222
70.5     240
70.52    206
70.54    205
70.56    211
70.58    211
70.6     198
70.62    222
70.64    191
70.66    207
70.68    217
70.7     191
70.72    211
70.74    222
70.76    214
70.78    233
70.8     218
70.82    216
70.84    215
70.86    204
70.88    225
70.9     229
70.92    228
70.94    199
70.96    215
70.98    239
71.0     228
71.02    199
71.04    225
71.06    207
71.08    195
71.1     192
71.12    211
71.14    210
71.16    204
71.18    194
71.2     197
71.22    207
71.24    218
71.26    245
71.28    219
71.3     213
71.32    208
71.34    208
71.36    212
71.38    241
71.4     217
71.42    233
71.44    206
71.46    216
71.48    219
71.5     221
71.52    214
71.54    219
71.56    208
71.58    217
71.6     225
71.62    230
71.64    234
71.66    204
71.68    210
71.7     222
71.72    218
71.74    245
71.76    231
71.78    215
71.8     220
71.82    242
71.84    233
71.86    237
71.88    232
71.9     232
71.92    236
71.94    239
71.96    238
71.98    242
72.0     241
72.02    232
72.04    228
72.06    235
72.08    239
72.1     224
72.12    244
72.14    241
72.16    244
72.18    235
72.2     234
72.22    232
72.24    253
72.26    235
72.28    251
72.3     225
72.32    234
72.34    250
72.36    230
72.38    219
72.4     202
72.42    213
72.44    231
72.46    206
72.48    256
72.5     225
72.52    224
72.54    200
72.56    236
72.58    225
72.6     202
72.62    198
72.64    217
72.66    216
72.68    200
72.7     242
72.72    215
72.74    206
72.76    219
72.78    209
72.8     199
72.82    218
72.84    216
72.86    218
72.88    210
72.9     221
72.92    210
72.94    204
72.96    193
72.98    197
73.0     194
73.02    234
73.04    214
73.06    218
73.08    219
73.1     233
73.12    221
73.14    239
73.16    231
73.18    237
73.2     234
73.22    232
73.24    219
73.26    217
73.28    236
73.3     250
73.32    269
73.34    260
73.36    258
73.38    236
73.4     223
73.42    237
73.44    249
73.46    239
73.48    245
73.5     223
73.52    208
73.54    224
73.56    233
73.58    205
73.6     213
73.62    218
73.64    215
73.66    228
73.68    223
73.7     218
73.72    185
73.74    222
73.76    206
73.78    196
73.8     185
73.82    187
73.84    189
73.86    180
73.88    201
73.9     198
73.92    201
73.94    181
73.96    186
73.98    205
74.0     196
74.02    198
74.04    199
74.06    177
74.08    206
74.1     200
74.12    189
74.14    166
74.16    197
74.18    200
74.2     184
74.22    188
74.24    192
74.26    190
74.28    178
74.3     189
74.32    175
74.34    195
74.36    197
74.38    175
74.4     182
74.42    188
74.44    183
74.46    209
74.48    203
74.5     176
74.52    173
74.54    180
74.56    200
74.58    189
74.6     181
74.62    180
74.64    158
74.66    203
74.68    201
74.7     195
74.72    184
74.74    168
74.76    206
74.78    191
74.8     188
74.82    178
74.84    166
74.86    164
74.88    175
74.9     183
74.92    170
74.94    183
74.96    178
74.98    184
75.0     190
75.02    182
75.04    164
75.06    177
75.08    185
75.1     171
75.12    195
75.14    178
75.16    172
75.18    192
75.2     182
75.22    178
75.24    179
75.26    182
75.28    166
75.3     163
75.32    166
75.34    172
75.36    176
75.38    183
75.4     170
75.42    210
75.44    216
75.46    183
75.48    177
75.5     183
75.52    191
75.54    185
75.56    161
75.58    181
75.6     197
75.62    198
75.64    200
75.66    176
75.68    198
75.7     167
75.72    188
75.74    193
75.76    187
75.78    183
75.8     194
75.82    219
75.84    208
75.86    186
75.88    211
75.9     181
75.92    195
75.94    214
75.96    214
75.98    218
76.0     196
76.02    201
76.04    201
76.06    187
76.08    184
76.1     205
76.12    238
76.14    200
76.16    208
76.18    198
76.2     202
76.22    201
76.24    202
76.26    187
76.28    200
76.3     196
76.32    205
76.34    176
76.36    175
76.38    209
76.4     221
76.42    202
76.44    189
76.46    196
76.48    194
76.5     203
76.52    191
76.54    202
76.56    167
76.58    189
76.6     174
76.62    173
76.64    188
76.66    210
76.68    188
76.7     198
76.72    178
76.74    162
76.76    170
76.78    196
76.8     185
76.82    215
76.84    187
76.86    182
76.88    198
76.9     179
76.92    183
76.94    174
76.96    179
76.98    165
77.0     190
77.02    166
77.04    190
77.06    160
77.08    188
77.1     180
77.12    176
77.14    173
77.16    165
77.18    189
77.2     179
77.22    174
77.24    179
77.26    182
77.28    168
77.3     150
77.32    158
77.34    185
77.36    168
77.38    158
77.4     167
77.42    166
77.44    157
77.46    185
77.48    172
77.5     178
77.52    189
77.54    180
77.56    181
77.58    171
77.6     167
77.62    175
77.64    182
77.66    176
77.68    178
77.7     150
77.72    154
77.74    176
77.76    165
77.78    187
77.8     189
77.82    163
77.84    182
77.86    173
77.88    186
77.9     181
77.92    193
77.94    204
77.96    184
77.98    200
78.0     196
78.02    201
78.04    214
78.06    175
78.08    203
78.1     209
78.12    204
78.14    182
78.16    178
78.18    216
78.2     199
78.22    194
78.24    213
78.26    213
78.28    216
78.3     213
78.32    220
78.34    215
78.36    205
78.38    208
78.4     210
78.42    197
78.44    197
78.46    203
78.48    194
78.5     209
78.52    191
78.54    206
78.56    192
78.58    201
78.6     199
78.62    199
78.64    187
78.66    183
78.68    190
78.7     201
78.72    168
78.74    196
78.76    180
78.78    164
78.8     167
78.82    189
78.84    185
78.86    190
78.88    167
78.9     171
78.92    151
78.94    162
78.96    159
78.98    175
79.0     170
79.02    189
79.04    160
79.06    141
79.08    153
79.1     163
79.12    173
79.14    156
79.16    166
79.18    181
79.2     164
79.22    184
79.24    175
79.26    166
79.28    169
79.3     144
79.32    172
79.34    154
79.36    180
79.38    171
79.4     172
79.42    163
79.44    150
79.46    176
79.48    157
79.5     142
79.52    167
79.54    164
79.56    175
79.58    175
79.6     176
79.62    170
79.64    156
79.66    172
79.68    153
79.7     174
79.72    163
79.74    173
79.76    152
79.78    150
79.8     154
79.82    149
79.84    163
79.86    174
79.88    172
79.9     177
79.92    179
79.94    196
79.96    189
79.98    165
80.0     188
